Date,Adj Close,Close,High,Low,Open,Volume
2025-01-02,151.08505249023438,154.16000366210938,158.11000061035156,153.4499969482422,157.64999389648438,239400
2025-01-03,152.39833068847656,155.5,155.72000122070312,152.8699951171875,154.0399932861328,250700
2025-01-06,149.8697967529297,152.9199981689453,154.63999938964844,151.44000244140625,154.0,369000
2025-01-07,150.36964416503906,153.42999267578125,156.05999755859375,152.60000610351562,155.9199981689453,361200
2025-01-08,151.07525634765625,154.14999389648438,154.25999450683594,152.08999633789062,152.88999938964844,228600
2025-01-10,150.38922119140625,153.4499969482422,154.3000030517578,152.5800018310547,152.72000122070312,350800
2025-01-13,150.82044982910156,153.88999938964844,154.6999969482422,152.92999267578125,152.92999267578125,349300
2025-01-14,151.52606201171875,154.61000061035156,155.4499969482422,153.47999572753906,154.80999755859375,196900
2025-01-15,152.45713806152344,155.55999755859375,156.9199981689453,154.1699981689453,156.1199951171875,206100
2025-01-16,153.2901611328125,156.41000366210938,157.1699981689453,155.30999755859375,155.88999938964844,346300
2025-01-17,152.97654724121094,156.08999633789062,157.9499969482422,155.67999267578125,156.97000122070312,231900
2025-01-21,156.6419677734375,159.8300018310547,160.25999450683594,156.72000122070312,156.72000122070312,270900
2025-01-22,155.8971405029297,159.07000732421875,160.75,158.33999633789062,159.33999633789062,280000
2025-01-23,156.43614196777344,159.6199951171875,159.80999755859375,157.72999572753906,158.4600067138672,149800
2025-01-24,155.14247131347656,158.3000030517578,160.47000122070312,157.22000122070312,159.64999389648438,329600
2025-01-27,155.29930114746094,158.4600067138672,158.9199981689453,156.64999389648438,158.25,317000
2025-01-28,155.2600860595703,158.4199981689453,160.35000610351562,157.57000732421875,157.57000732421875,204300
2025-01-29,153.97622680664062,157.11000061035156,158.82000732421875,156.6199951171875,158.77999877929688,265800
2025-01-30,154.9758758544922,158.1300048828125,158.67999267578125,156.5800018310547,157.82000732421875,274200
2025-01-31,154.01541137695312,157.14999389648438,159.38999938964844,156.75999450683594,157.89999389648438,834100
2025-02-03,152.86875915527344,155.97999572753906,156.75,154.13999938964844,154.5800018310547,364600
2025-02-04,154.554443359375,157.6999969482422,158.4600067138672,156.08999633789062,156.08999633789062,302400
2025-02-05,155.6061248779297,158.32000732421875,159.66000366210938,157.77999877929688,158.27999877929688,262600
2025-02-06,153.7681427001953,156.4499969482422,159.83999633789062,155.3699951171875,159.83999633789062,446600
2025-02-07,140.7256317138672,143.17999267578125,157.89999389648438,142.0399932861328,157.6199951171875,1221500
2025-02-10,140.82391357421875,143.27999877929688,144.60000610351562,140.89999389648438,144.25999450683594,621900
2025-02-11,139.85086059570312,142.2899932861328,143.07000732421875,140.25999450683594,142.27000427246094,377300
2025-02-12,139.27099609375,141.6999969482422,143.49000549316406,139.92999267578125,140.97000122070312,423500
2025-02-13,140.32266235351562,142.77000427246094,143.77999877929688,141.4600067138672,142.75,665900
2025-02-14,142.30804443359375,144.7899932861328,145.30999755859375,142.72000122070312,143.69000244140625,512800
2025-02-18,144.38186645507812,146.89999389648438,147.2899932861328,143.89999389648438,144.7899932861328,489600
2025-02-19,144.51947021484375,147.0399932861328,147.49000549316406,145.61000061035156,146.13999938964844,331000
2025-02-20,144.1656494140625,146.67999267578125,147.4199981689453,145.9199981689453,146.97000122070312,283100
2025-02-21,143.83145141601562,146.33999633789062,147.38999938964844,145.1999969482422,147.02999877929688,451900
2025-02-24,143.11398315429688,145.61000061035156,147.2899932861328,144.36000061035156,146.17999267578125,353300
2025-02-25,145.17799377441406,147.7100067138672,148.3300018310547,145.72000122070312,145.8800048828125,336700
2025-02-26,144.12632751464844,146.63999938964844,149.17999267578125,146.6199951171875,146.64999389648438,735600
2025-02-27,143.13365173339844,145.6300048828125,147.17999267578125,145.36000061035156,146.22999572753906,262800
2025-02-28,144.2344512939453,146.75,146.9499969482422,144.6300048828125,146.16000366210938,348700
2025-03-03,144.07717895507812,146.58999633789062,148.83999633789062,145.69000244140625,146.97000122070312,394100
2025-03-04,143.43833923339844,145.94000244140625,147.9499969482422,145.13999938964844,145.5399932861328,490100
2025-03-05,145.8954620361328,148.44000244140625,148.85000610351562,146.0500030517578,146.0500030517578,445100
2025-03-06,148.55902099609375,151.14999389648438,151.5,147.05999755859375,147.55999755859375,471700
2025-03-07,150.1610870361328,152.77999877929688,153.36000061035156,149.17999267578125,150.50999450683594,480200
2025-03-10,147.98898315429688,150.57000732421875,154.0,150.24000549316406,152.07000732421875,391100
2025-03-11,145.3549041748047,147.88999938964844,150.55999755859375,147.27000427246094,150.33999633789062,304000
2025-03-12,143.52676391601562,146.02999877929688,148.24000549316406,145.55999755859375,148.24000549316406,299700
2025-03-13,142.27854919433594,144.75999450683594,147.1999969482422,143.75999450683594,146.41000366210938,238400
2025-03-14,144.14598083496094,146.66000366210938,146.88999938964844,144.5399932861328,145.22999572753906,223600
2025-03-17,145.30575561523438,147.83999633789062,148.0,145.86000061035156,146.50999450683594,225200
2025-03-18,143.79214477539062,146.3000030517578,147.52999877929688,145.77999877929688,147.38999938964844,219900
2025-03-19,144.46047973632812,146.97999572753906,147.4600067138672,145.47000122070312,146.33999633789062,279600
2025-03-20,142.7110137939453,145.1999969482422,147.4199981689453,143.72999572753906,146.1300048828125,332800
2025-03-21,142.3375244140625,144.82000732421875,145.4600067138672,142.36000061035156,144.0,601900
2025-03-24,145.45318603515625,147.99000549316406,148.17999267578125,144.91000366210938,145.75,463800
2025-03-25,144.6865692138672,147.2100067138672,149.22999572753906,145.92999267578125,148.49000549316406,325200
2025-03-26,146.01341247558594,148.55999755859375,148.6999969482422,146.3000030517578,147.0500030517578,630400
2025-03-27,146.7898712158203,149.35000610351562,149.88999938964844,147.02999877929688,148.27999877929688,312700
2025-03-28,144.41134643554688,146.92999267578125,150.0,145.75999450683594,149.2899932861328,239800
2025-03-31,145.8365020751953,148.3800048828125,149.08999633789062,146.10000610351562,146.5800018310547,372500
2025-04-01,146.54415893554688,149.10000610351562,150.02999877929688,147.3800048828125,148.8800048828125,240000
2025-04-02,147.94964599609375,150.52999877929688,151.1300048828125,148.0,148.0,247600
2025-04-03,146.12152099609375,148.6699981689453,150.0500030517578,146.4600067138672,146.75999450683594,352900
2025-04-04,137.7770538330078,140.17999267578125,147.9600067138672,140.0399932861328,145.22000122070312,531600
2025-04-07,132.34185791015625,134.64999389648438,142.1199951171875,130.85000610351562,136.33999633789062,629900
2025-04-08,131.3688201904297,133.66000366210938,139.30999755859375,131.27999877929688,137.3800048828125,473800
2025-04-09,141.28585815429688,143.75,144.4199981689453,131.32000732421875,133.17999267578125,491800
2025-04-10,138.34710693359375,140.75999450683594,143.3699951171875,137.57000732421875,140.0,309000
2025-04-11,141.63970947265625,144.11000061035156,144.7100067138672,139.74000549316406,140.8699951171875,203000
2025-04-14,143.2908935546875,145.7899932861328,146.39999389648438,143.7899932861328,145.8000030517578,249300
2025-04-15,141.47262573242188,143.94000244140625,146.5399932861328,143.77000427246094,146.10000610351562,250700
2025-04-16,142.5144500732422,145.0,145.82000732421875,142.57000732421875,144.05999755859375,307700
2025-04-17,141.364501953125,143.8300018310547,145.75999450683594,140.7100067138672,145.39999389648438,390600
2025-04-21,140.13592529296875,142.5800018310547,144.0500030517578,141.10000610351562,143.3000030517578,291600
2025-04-22,143.5169677734375,146.02000427246094,146.82000732421875,143.58999633789062,144.5,217800
2025-04-23,145.5121612548828,148.0500030517578,149.32000732421875,147.22000122070312,147.8699951171875,537000
2025-04-24,148.86370849609375,151.4600067138672,152.0,145.4600067138672,147.92999267578125,424500
2025-04-25,146.5048370361328,149.05999755859375,153.0,147.57000732421875,150.85000610351562,220500
2025-04-28,147.1338653564453,149.6999969482422,151.02999877929688,148.27999877929688,149.8000030517578,235200
2025-04-29,147.72357177734375,150.3000030517578,151.97999572753906,149.00999450683594,149.75999450683594,359900
2025-04-30,147.3795928955078,149.9499969482422,149.99000549316406,147.2100067138672,149.07000732421875,556200
2025-05-01,146.1768798828125,148.27999877929688,150.52999877929688,146.9600067138672,148.4499969482422,445300
2025-05-02,149.8441162109375,152.0,153.0,147.7899932861328,152.99000549316406,431600
2025-05-05,149.3314971923828,151.47999572753906,153.22000122070312,150.8800048828125,151.42999267578125,267600
2025-05-06,148.77944946289062,150.9199981689453,152.0399932861328,149.4199981689453,150.25,312000
2025-05-07,149.24276733398438,151.38999938964844,153.14999389648438,150.6199951171875,151.8800048828125,318400
2025-05-08,151.18484497070312,153.36000061035156,154.57000732421875,151.24000549316406,151.7899932861328,302500
2025-05-09,151.14540100097656,153.32000732421875,154.3000030517578,152.94000244140625,153.91000366210938,231600
2025-05-12,153.314208984375,155.52000427246094,156.58999633789062,153.6999969482422,155.7899932861328,352500
2025-05-13,151.4608612060547,153.63999938964844,156.30999755859375,153.1999969482422,156.30999755859375,339400
2025-05-14,150.3173065185547,152.47999572753906,153.6199951171875,150.97000122070312,153.6199951171875,350100
2025-05-15,152.7522735595703,154.9499969482422,155.47999572753906,152.35000610351562,152.35000610351562,278100
2025-05-16,154.78306579589844,157.00999450683594,157.14999389648438,154.58999633789062,155.17999267578125,278600
2025-05-19,155.837890625,158.0800018310547,158.33999633789062,156.30999755859375,156.36000061035156,185400
2025-05-20,156.28150939941406,158.52999877929688,160.25999450683594,157.91000366210938,160.25999450683594,388100
2025-05-21,154.23098754882812,156.4499969482422,157.64999389648438,155.8300018310547,156.86000061035156,319800
2025-05-22,154.4281768798828,156.64999389648438,157.25999450683594,155.55999755859375,156.36000061035156,278900
2025-05-23,153.72825622558594,155.94000244140625,156.17999267578125,154.25999450683594,155.1199951171875,260500
2025-05-27,155.916748046875,158.16000366210938,158.44000244140625,156.69000244140625,157.02999877929688,352800
2025-05-28,155.1675262451172,157.39999389648438,158.83999633789062,157.25999450683594,158.16000366210938,364400
2025-05-29,156.08433532714844,158.3300018310547,158.6699981689453,156.82000732421875,157.8300018310547,232100
2025-05-30,156.15333557128906,158.39999389648438,158.77999877929688,156.5399932861328,158.24000549316406,335100
2025-06-02,154.6844940185547,156.91000366210938,159.07000732421875,155.25999450683594,157.5399932861328,349600
2025-06-03,154.043701171875,156.25999450683594,157.44000244140625,156.0,156.17999267578125,397800
2025-06-04,148.2766876220703,150.41000366210938,156.52000427246094,150.2899932861328,156.49000549316406,831900
2025-06-05,150.32717895507812,152.49000549316406,153.33999633789062,149.0500030517578,151.5800018310547,482400
2025-06-06,151.13555908203125,153.30999755859375,154.47999572753906,152.2100067138672,154.3699951171875,264700
2025-06-09,149.44979858398438,151.60000610351562,153.17999267578125,151.36000061035156,152.7100067138672,388400
2025-06-10,150.3666229248047,152.52999877929688,153.0,150.86000061035156,152.16000366210938,323500
2025-06-11,149.7652587890625,151.9199981689453,153.58999633789062,151.60000610351562,153.0,380800
2025-06-12,152.16078186035156,154.35000610351562,154.6199951171875,151.41000366210938,151.41000366210938,337200
2025-06-13,149.0160369873047,151.16000366210938,153.72000122070312,150.72999572753906,153.0,361200
2025-06-16,149.5385284423828,151.69000244140625,152.89999389648438,151.1199951171875,151.24000549316406,346200
2025-06-17,147.33029174804688,149.4499969482422,151.25999450683594,149.1300048828125,150.66000366210938,379700
2025-06-18,147.5767364501953,149.6999969482422,150.72999572753906,149.1199951171875,149.1199951171875,383200
2025-06-20,148.16822814941406,150.3000030517578,150.77000427246094,148.99000549316406,150.2899932861328,570500
2025-06-23,151.60873413085938,153.7899932861328,153.94000244140625,149.49000549316406,149.49000549316406,356500
2025-06-24,151.68759155273438,153.8699951171875,154.57000732421875,153.17999267578125,154.57000732421875,246600
2025-06-25,151.74673461914062,153.92999267578125,154.52999877929688,152.77000427246094,153.86000061035156,264700
2025-06-26,152.28895568847656,154.47999572753906,155.5800018310547,153.1199951171875,154.52999877929688,658200
2025-06-27,153.60995483398438,155.82000732421875,156.11000061035156,154.22999572753906,154.66000366210938,643100
2025-06-30,154.21127319335938,156.42999267578125,156.5,154.61000061035156,156.02999877929688,315500
2025-07-01,156.75469970703125,159.00999450683594,159.8000030517578,155.9600067138672,156.42999267578125,338300
2025-07-02,158.04612731933594,160.32000732421875,160.52999877929688,158.64999389648438,159.02000427246094,293500
2025-07-03,158.75588989257812,161.0399932861328,161.36000061035156,159.82000732421875,160.60000610351562,235100
2025-07-07,158.6770477294922,160.9600067138672,162.3699951171875,160.5500030517578,160.9499969482422,313900
2025-07-08,157.7799530029297,160.0500030517578,162.5800018310547,159.85000610351562,160.89999389648438,342700
2025-07-09,157.46449279785156,159.72999572753906,160.00999450683594,158.10000610351562,159.92999267578125,252800
2025-07-10,156.08433532714844,158.3300018310547,160.36000061035156,158.3300018310547,159.19000244140625,361600
2025-07-11,155.66043090820312,157.89999389648438,158.55999755859375,156.6300048828125,158.55999755859375,292000
2025-07-14,155.32525634765625,157.55999755859375,158.94000244140625,156.69000244140625,157.13999938964844,276600
2025-07-15,151.97348022460938,154.16000366210938,158.0,154.07000732421875,157.74000549316406,254200
2025-07-16,152.78184509277344,154.97999572753906,155.61000061035156,153.5500030517578,153.9199981689453,261900
2025-07-17,153.81695556640625,156.02999877929688,156.41000366210938,154.50999450683594,154.74000549316406,397700
2025-07-18,154.16200256347656,156.3800048828125,157.2100067138672,154.9199981689453,156.85000610351562,243100
2025-07-21,153.2451934814453,155.4499969482422,156.6699981689453,155.24000549316406,156.4199981689453,205900
2025-07-22,156.9124298095703,159.1699981689453,159.36000061035156,155.22999572753906,156.11000061035156,449900
2025-07-23,159.36712646484375,161.66000366210938,161.85000610351562,159.13999938964844,160.07000732421875,450500
2025-07-24,159.9701385498047,161.82000732421875,164.27999877929688,159.7899932861328,160.9600067138672,431900
2025-07-25,159.14962768554688,160.99000549316406,163.08999633789062,160.77999877929688,162.0500030517578,296300
2025-07-28,156.88580322265625,158.6999969482422,161.97999572753906,158.16000366210938,161.1999969482422,308500
2025-07-29,157.0044403076172,158.82000732421875,159.60000610351562,157.22000122070312,159.0500030517578,388200
2025-07-30,154.99761962890625,156.7899932861328,158.92999267578125,154.9199981689453,158.8000030517578,580700
2025-07-31,155.3436279296875,157.13999938964844,157.35000610351562,155.17999267578125,155.77999877929688,679700
2025-08-01,139.73416137695312,141.35000610351562,158.1199951171875,141.08999633789062,156.97000122070312,1012300
2025-08-04,137.53952026367188,139.1300048828125,143.1199951171875,137.0800018310547,143.1199951171875,839000
2025-08-05,138.6170654296875,140.22000122070312,141.07000732421875,137.69000244140625,139.33999633789062,540800
2025-08-06,136.9562530517578,138.5399932861328,140.75999450683594,137.5500030517578,140.30999755859375,515300
2025-08-07,138.88397216796875,140.49000549316406,141.49000549316406,138.91000366210938,139.8000030517578,564000
2025-08-08,139.14100646972656,140.75,142.0500030517578,140.5800018310547,140.69000244140625,428700
2025-08-11,138.27105712890625,139.8699951171875,141.6199951171875,139.1999969482422,141.3300018310547,349500
2025-08-12,137.88551330566406,139.47999572753906,141.08999633789062,139.22999572753906,140.22000122070312,286100
2025-08-13,139.813232421875,141.42999267578125,141.44000244140625,139.25,139.69000244140625,729900
2025-08-14,136.758544921875,138.33999633789062,140.19000244140625,136.44000244140625,140.19000244140625,875800
2025-08-15,137.13421630859375,138.72000122070312,138.9499969482422,137.8699951171875,138.36000061035156,770500
2025-08-18,136.31370544433594,137.88999938964844,139.57000732421875,137.35000610351562,138.88999938964844,529500
2025-08-19,137.99424743652344,139.58999633789062,140.52000427246094,138.27000427246094,138.27000427246094,333100
2025-08-20,139.56607055664062,141.17999267578125,141.25,139.25999450683594,139.91000366210938,519200
2025-08-21,139.03225708007812,140.63999938964844,141.89999389648438,140.24000549316406,140.6300048828125,270400
2025-08-22,139.813232421875,141.42999267578125,143.3300018310547,141.19000244140625,141.25999450683594,356500
2025-08-25,137.964599609375,139.55999755859375,141.61000061035156,138.9600067138672,140.97000122070312,245800
2025-08-26,138.11288452148438,139.7100067138672,140.16000366210938,138.00999450683594,139.07000732421875,442900
2025-08-27,137.84597778320312,139.44000244140625,140.57000732421875,139.02999877929688,139.08999633789062,729100
2025-08-28,137.30226135253906,138.88999938964844,140.1699981689453,137.39999389648438,140.1699981689453,320800
2025-08-29,137.6779327392578,139.27000427246094,139.8699951171875,138.35000610351562,139.1699981689453,370700
2025-09-02,134.85061645507812,136.41000366210938,138.52999877929688,136.1699981689453,137.4199981689453,310600
2025-09-03,133.67422485351562,135.22000122070312,136.17999267578125,134.44000244140625,136.0800018310547,382300
2025-09-04,136.87718200683594,138.4600067138672,138.47999572753906,135.0399932861328,136.35000610351562,401800
2025-09-05,137.03533935546875,138.6199951171875,140.82000732421875,137.6300048828125,139.02000427246094,440800
2025-09-08,136.71902465820312,138.3000030517578,140.0,137.67999267578125,138.58999633789062,616100
2025-09-09,135.48330688476562,137.0500030517578,139.47999572753906,135.10000610351562,138.25999450683594,637100
2025-09-10,134.69244384765625,136.25,137.4600067138672,134.85000610351562,136.1300048828125,685100
2025-09-11,135.53273010253906,137.10000610351562,138.27999877929688,135.8699951171875,136.75,477500
2025-09-12,133.68408203125,135.22999572753906,137.0500030517578,135.22000122070312,136.6199951171875,261300
2025-09-15,133.30845642089844,134.85000610351562,136.1699981689453,134.6300048828125,135.97000122070312,298000
2025-09-16,133.66432189941406,135.2100067138672,135.4199981689453,134.10000610351562,134.7899932861328,474800
2025-09-17,133.11073303222656,134.64999389648438,137.07000732421875,134.19000244140625,135.4199981689453,377400
2025-09-18,132.9624481201172,134.5,135.50999450683594,134.07000732421875,134.89999389648438,254800
2025-09-19,132.90313720703125,134.44000244140625,135.10000610351562,133.33999633789062,134.66000366210938,877200
2025-09-22,131.20278930664062,132.72000122070312,134.94000244140625,132.6699981689453,134.1199951171875,402100
2025-09-23,130.51080322265625,132.02000427246094,133.9499969482422,131.97000122070312,133.00999450683594,319700
2025-09-24,129.9967498779297,131.5,133.30999755859375,131.33999633789062,132.0,353300
2025-09-25,129.32452392578125,130.82000732421875,132.52000427246094,130.27000427246094,131.5,388700
2025-09-26,130.7777099609375,132.2899932861328,132.42999267578125,130.9600067138672,131.3300018310547,274400
2025-09-29,130.75794982910156,132.27000427246094,132.67999267578125,131.36000061035156,132.39999389648438,540600
2025-09-30,132.13204956054688,133.66000366210938,133.75999450683594,131.7100067138672,131.7100067138672,310400
2025-10-01,132.60655212402344,134.13999938964844,134.36000061035156,132.30999755859375,133.3300018310547,310100
2025-10-02,131.65753173828125,133.17999267578125,134.38999938964844,132.9600067138672,133.66000366210938,398500
2025-10-03,131.69708251953125,133.22000122070312,133.5800018310547,132.42999267578125,132.47000122070312,402000
2025-10-06,130.37240600585938,131.8800048828125,133.1999969482422,131.41000366210938,132.88999938964844,447100
2025-10-07,129.09713745117188,130.58999633789062,132.50999450683594,129.80999755859375,132.11000061035156,438800
2025-10-08,130.10546875,131.61000061035156,132.00999450683594,130.25999450683594,131.17999267578125,361300
2025-10-09,129.11691284179688,130.61000061035156,132.83999633789062,130.1999969482422,131.6999969482422,554200
2025-10-10,129.43324279785156,130.92999267578125,132.00999450683594,129.88999938964844,130.94000244140625,426000
2025-10-13,128.73138427734375,130.22000122070312,132.35000610351562,130.16000366210938,130.99000549316406,311400
2025-10-14,128.31619262695312,129.8000030517578,131.05999755859375,129.0399932861328,130.0399932861328,337400
2025-10-15,126.63561248779297,128.10000610351562,130.38999938964844,127.86000061035156,129.8000030517578,438300
2025-10-16,127.68348693847656,129.16000366210938,129.5,127.8499984741211,128.44000244140625,352700
2025-10-17,127.86143493652344,129.33999633789062,130.10000610351562,128.85000610351562,129.16000366210938,339700
2025-10-20,128.51388549804688,130.0,130.08999633789062,128.02000427246094,129.61000061035156,240500
2025-10-21,129.077392578125,130.57000732421875,131.77000427246094,129.1199951171875,130.61000061035156,311600
2025-10-22,128.5731964111328,130.05999755859375,132.11000061035156,129.97999572753906,130.64999389648438,357500
2025-10-23,129.75396728515625,130.77000427246094,131.52999877929688,129.66000366210938,129.74000549316406,378600
2025-10-24,127.87864685058594,128.8800048828125,130.88999938964844,128.5399932861328,130.75,489300
2025-10-27,127.7794189453125,128.77999877929688,129.89999389648438,128.4499969482422,129.13999938964844,521700
2025-10-28,127.10470581054688,128.10000610351562,129.11000061035156,127.47000122070312,128.75,413500
2025-10-29,123.34414672851562,124.30999755859375,127.5,123.41999816894531,127.27999877929688,651100
2025-10-30,123.39376068115234,124.36000061035156,125.5199966430664,123.04000091552734,124.04000091552734,702600
2025-10-31,115.108642578125,116.01000213623047,118.0999984741211,103.2300033569336,115.29000091552734,2758200
2025-11-03,112.24109649658203,113.12000274658203,116.08999633789062,108.29000091552734,116.08999633789062,1661000
2025-11-04,113.29285430908203,114.18000030517578,116.0,112.52999877929688,114.36000061035156,1029100
2025-11-05,114.67205047607422,115.56999969482422,116.04000091552734,112.7699966430664,114.33000183105469,896900
2025-11-06,115.24755096435547,116.1500015258789,116.95999908447266,113.80000305175781,115.0199966430664,880300
2025-11-07,115.31700134277344,116.22000122070312,116.91999816894531,114.69000244140625,116.2300033569336,697200
2025-11-10,115.47576141357422,116.37999725341797,116.7699966430664,114.0,115.98999786376953,514000
2025-11-11,117.35107421875,118.2699966430664,119.51000213623047,116.95999908447266,116.95999908447266,484800
2025-11-12,117.24193572998047,118.16000366210938,119.66999816894531,117.91000366210938,118.33999633789062,547500
2025-11-13,119.26607513427734,120.19999694824219,121.87999725341797,118.30000305175781,118.30000305175781,679400
2025-11-14,117.68843841552734,118.61000061035156,120.69000244140625,118.38999938964844,119.7699966430664,521200
2025-11-17,118.41276550292969,119.33999633789062,119.48999786376953,117.56999969482422,118.48999786376953,820200
2025-11-18,118.38299560546875,119.30999755859375,120.11000061035156,118.05999755859375,119.66000366210938,817400
2025-11-19,117.08317565917969,118.0,119.51000213623047,117.70999908447266,119.51000213623047,598900
2025-11-20,117.65867614746094,118.58000183105469,119.61000061035156,117.37000274658203,118.0,507400
2025-11-21,120.57582092285156,121.5199966430664,122.23999786376953,118.12999725341797,118.12999725341797,509100
2025-11-24,120.5262222290039,121.47000122070312,122.4000015258789,120.44000244140625,120.8499984741211,740000
2025-11-25,122.48091125488281,123.44000244140625,124.08000183105469,122.41000366210938,122.41000366210938,543600
2025-11-26,122.84803009033203,123.80999755859375,124.5199966430664,123.0199966430664,123.0199966430664,538000
2025-11-28,123.78073120117188,124.75,126.08000183105469,123.62999725341797,123.62999725341797,315700
2025-12-01,122.32215118408203,123.27999877929688,124.95999908447266,123.02999877929688,124.87999725341797,536800
2025-12-02,120.65520477294922,121.5999984741211,123.86000061035156,120.80000305175781,123.7699966430664,325400
2025-12-03,121.11162567138672,122.05999755859375,124.26000213623047,121.41000366210938,121.44999694824219,543100
2025-12-04,121.07193756103516,122.0199966430664,124.08000183105469,121.93000030517578,122.19999694824219,708000
2025-12-05,120.96279907226562,121.91000366210938,123.51000213623047,120.62000274658203,121.98999786376953,537000
2025-12-08,119.13709259033203,120.06999969482422,122.0999984741211,119.30000305175781,120.91999816894531,496600
2025-12-09,114.82089233398438,115.72000122070312,119.8499984741211,115.36000061035156,119.5999984741211,640300
2025-12-10,116.25962829589844,117.16999816894531,117.80000305175781,115.12999725341797,116.16999816894531,734700
2025-12-11,117.09309387207031,118.01000213623047,118.66999816894531,117.16000366210938,117.95999908447266,389700
2025-12-12,120.5262222290039,121.47000122070312,121.63999938964844,117.6500015258789,118.5199966430664,656400
2025-12-15,121.37953186035156,122.33000183105469,122.45999908447266,120.4800033569336,121.4800033569336,588600
2025-12-16,121.87564849853516,122.83000183105469,123.8499984741211,119.5199966430664,122.66999816894531,644800
2025-12-17,122.66943359375,123.62999725341797,124.5999984741211,120.08000183105469,122.11000061035156,567300
2025-12-18,121.66728210449219,122.62000274658203,124.12000274658203,122.02999877929688,123.66999816894531,457100
2025-12-19,120.44683837890625,121.38999938964844,124.33000183105469,121.26000213623047,123.33999633789062,1300400
2025-12-22,121.78634643554688,122.73999786376953,123.69999694824219,121.06999969482422,121.38999938964844,527800
2025-12-23,121.2406234741211,122.19000244140625,123.02999877929688,121.31999969482422,122.87000274658203,311700
2025-12-24,121.79627227783203,122.75,123.16999816894531,121.76000213623047,122.52999877929688,198000
2025-12-26,122.29238891601562,123.25,123.4800033569336,121.72000122070312,122.37000274658203,306000
2025-12-29,122.25270080566406,123.20999908447266,124.30999755859375,122.31999969482422,123.29000091552734,400200
2025-12-30,121.78634643554688,122.73999786376953,124.30000305175781,122.41999816894531,122.80000305175781,289800
2025-12-31,121.01240539550781,121.95999908447266,123.33000183105469,121.3499984741211,121.5199966430664,314300
2026-01-02,121.58790588378906,122.54000091552734,123.0,120.77999877929688,121.73999786376953,295100
2026-01-05,122.04432678222656,123.0,124.58000183105469,121.76000213623047,121.76000213623047,435700
2026-01-06,119.62328338623047,120.55999755859375,122.8499984741211,120.11000061035156,122.22000122070312,777200
2026-01-07,119.50422668457031,120.44000244140625,121.94999694824219,117.61000061035156,120.66999816894531,478500
2026-01-08,121.48868560791016,122.44000244140625,123.37000274658203,119.5199966430664,119.91999816894531,330000
2026-01-09,122.88772583007812,123.8499984741211,124.97000122070312,121.45999908447266,122.08000183105469,429100
2026-01-12,124.15777587890625,125.12999725341797,125.30000305175781,122.9800033569336,124.0,477300
2026-01-13,122.54044342041016,123.5,125.44000244140625,122.54000091552734,125.05000305175781,351900
2026-01-14,125.86441040039062,126.8499984741211,127.16000366210938,124.11000061035156,124.11000061035156,611700
2026-01-15,124.13793182373047,125.11000061035156,127.22000122070312,124.5199966430664,127.13999938964844,381000
2026-01-16,123.74103546142578,124.70999908447266,125.19999694824219,123.23999786376953,124.0,363400
2026-01-20,122.85795593261719,123.81999969482422,125.52999877929688,123.44000244140625,124.9000015258789,275100
2026-01-21,124.0387191772461,125.01000213623047,125.62000274658203,123.9000015258789,124.30999755859375,421000
2026-01-22,123.5029067993164,124.47000122070312,126.41000366210938,124.05999755859375,125.05000305175781,369700
2026-01-23,125.0210189819336,126.0,126.27999877929688,123.87000274658203,124.33999633789062,429500
2026-01-26,125.36830139160156,126.3499984741211,126.98999786376953,125.0999984741211,126.41999816894531,315400
2026-01-27,123.77080535888672,124.73999786376953,126.30000305175781,124.16999816894531,124.94999694824219,303100
2026-01-28,122.73888397216797,123.69999694824219,125.06999969482422,123.25,124.19999694824219,347800
2026-01-29,122.88772583007812,123.8499984741211,125.27999877929688,122.58999633789062,124.29000091552734,386000
2026-01-30,123.97917175292969,124.94999694824219,125.01000213623047,122.66000366210938,122.91000366210938,512700
2026-02-02,123.860107421875,124.83000183105469,125.91000366210938,124.19999694824219,124.19999694824219,489100
2026-02-03,123.66165924072266,124.62999725341797,127.93000030517578,123.69000244140625,123.91000366210938,658700
2026-02-04,128.7216796875,129.22999572753906,130.4199981689453,124.69999694824219,125.70999908447266,589400
2026-02-05,123.49234008789062,123.9800033569336,129.0800018310547,121.95999908447266,127.66999816894531,2144200
2026-02-06,133.7816925048828,134.30999755859375,135.99000549316406,127.52999877929688,127.52999877929688,1045700
2026-02-09,137.9253387451172,138.47000122070312,139.57000732421875,133.25,133.5800018310547,1043400
2026-02-10,139.61865234375,140.1699981689453,140.92999267578125,137.80999755859375,137.80999755859375,622100
2026-02-11,139.4592742919922,140.00999450683594,140.5500030517578,138.60000610351562,139.02999877929688,584300
2026-02-12,139.95730590820312,140.50999450683594,142.0,139.38999938964844,140.16000366210938,572700
2026-02-13,142.01918029785156,142.5800018310547,142.92999267578125,140.41000366210938,140.50999450683594,471900
2026-02-17,141.0928192138672,141.64999389648438,143.6199951171875,139.25999450683594,139.25999450683594,614700
2026-02-18,141.1625518798828,141.72000122070312,143.11000061035156,140.83999633789062,141.47000122070312,582000
2026-02-19,142.59689331054688,143.16000366210938,143.32000732421875,141.02999877929688,141.64999389648438,525500
2026-02-20,144.47946166992188,145.0500030517578,145.13999938964844,142.0,143.1199951171875,664500
2026-02-23,145.14682006835938,145.72000122070312,146.24000549316406,143.1300048828125,143.49000549316406,513500
2026-02-24,143.57302856445312,144.13999938964844,146.91000366210938,143.85000610351562,146.07000732421875,429800
2026-02-25,142.1187744140625,142.67999267578125,143.66000366210938,140.42999267578125,142.41000366210938,348900
2026-02-26,141.23226928710938,141.7899932861328,143.9199981689453,141.0,143.52000427246094,331300
2026-02-27,143.1447296142578,143.7100067138672,144.00999450683594,141.0,141.52999877929688,344600
2026-03-02,142.1088104248047,142.6699981689453,143.35000610351562,141.6199951171875,143.0,335000
2026-03-03,139.2102508544922,139.75999450683594,141.32000732421875,136.9199981689453,140.63999938964844,347300
2026-03-04,136.50096130371094,137.0399932861328,139.50999450683594,136.00999450683594,139.33999633789062,389000
2026-03-05,134.20004272460938,134.72999572753906,136.33999633789062,134.41000366210938,136.0,452300
2026-03-06,131.5604705810547,132.0800018310547,134.0,131.0,134.0,398500
2026-03-09,133.22390747070312,133.75,133.97999572753906,127.52999877929688,130.97000122070312,545700
2026-03-10,131.6102752685547,132.1300048828125,134.1300048828125,131.39999389648438,133.35000610351562,503100
2026-03-11,131.50071716308594,132.02000427246094,133.27999877929688,130.0399932861328,131.8000030517578,563800
2026-03-12,128.35313415527344,128.86000061035156,132.7899932861328,128.63999938964844,131.27000427246094,620600
2026-03-13,128.14395141601562,128.64999389648438,130.14999389648438,127.05000305175781,130.14999389648438,660600
2026-03-16,128.54238891601562,129.0500030517578,131.41000366210938,126.0,129.47999572753906,370700
2026-03-17,128.99061584472656,129.5,131.02000427246094,128.24000549316406,129.97000122070312,276700
2026-03-18,123.73139190673828,124.22000122070312,126.58000183105469,121.41999816894531,124.37999725341797,910500
2026-03-19,123.48237609863281,123.97000122070312,124.81999969482422,121.44999694824219,123.01000213623047,518500
2026-03-20,120.58381652832031,121.05999755859375,124.26000213623047,120.30999755859375,124.26000213623047,1481500
2026-03-23,123.65170288085938,124.13999938964844,126.33999633789062,122.98999786376953,123.51000213623047,455200
2026-03-24,123.66166687011719,124.1500015258789,125.22000122070312,122.87000274658203,123.16000366210938,405000
2026-03-25,125.3250961303711,125.81999969482422,126.56999969482422,123.70999908447266,125.44000244140625,337200
2026-03-26,124.19954681396484,124.69000244140625,127.33999633789062,124.12000274658203,125.22000122070312,442100
2026-03-27,121.51016235351562,121.98999786376953,124.20999908447266,121.76000213623047,123.94000244140625,381400
2026-03-30,122.87477111816406,123.36000061035156,123.94000244140625,121.0999984741211,122.55999755859375,562000
2026-03-31,125.52430725097656,126.0199966430664,126.95999908447266,123.58999633789062,124.38999938964844,557800
2026-04-01,126.25143432617188,126.75,128.63999938964844,126.33000183105469,127.33999633789062,380200
2026-04-02,125.51435089111328,126.01000213623047,127.08999633789062,124.25,125.13999938964844,297500
2026-04-06,125.51435089111328,126.01000213623047,126.19000244140625,124.58999633789062,124.58999633789062,461100
2026-04-07,125.11592102050781,125.61000061035156,127.16999816894531,124.80000305175781,125.31999969482422,376900
2026-04-08,131.50071716308594,132.02000427246094,132.6699981689453,128.14999389648438,131.3800048828125,645200
2026-04-09,130.88314819335938,131.39999389648438,132.44000244140625,127.33999633789062,131.22000122070312,424100
2026-04-10,130.98275756835938,131.5,132.6999969482422,130.85000610351562,132.25,407400
2026-04-13,131.59036254882812,132.11000061035156,132.4199981689453,127.58000183105469,130.8000030517578,396300
2026-04-14,130.4946746826172,131.00999450683594,132.72000122070312,130.97000122070312,131.22999572753906,315500
2026-04-15,129.14002990722656,129.64999389648438,131.02999877929688,128.60000610351562,130.80999755859375,407100
2026-04-16,127.78536987304688,128.2899932861328,130.3300018310547,126.9000015258789,126.9000015258789,393800
2026-04-17,130.11618041992188,130.6300048828125,132.3000030517578,129.64999389648438,129.64999389648438,401100
2026-04-20,130.405029296875,130.9199981689453,131.99000549316406,129.66000366210938,130.57000732421875,403600
2026-04-21,126.1916732788086,126.69000244140625,132.25,126.69000244140625,130.6999969482422,310200
2026-04-22,124.06009674072266,124.55000305175781,127.27999877929688,122.95999908447266,127.27999877929688,458900
2026-04-23,124.44856262207031,124.94000244140625,127.44000244140625,124.44000244140625,125.37999725341797,440800
2026-04-24,123.5919418334961,124.08000183105469,124.41000366210938,122.56999969482422,124.41000366210938,440900
2026-04-27,124.23938751220703,124.7300033569336,126.2300033569336,123.54000091552734,124.04000091552734,359700
2026-04-28,125.2752914428711,125.7699966430664,126.6500015258789,123.72000122070312,126.12000274658203,354300
2026-04-29,122.41658020019531,122.9000015258789,125.9000015258789,122.79000091552734,125.13999938964844,448400
2026-04-30,123.19351196289062,123.68000030517578,126.08000183105469,121.87999725341797,123.43000030517578,764800
2026-05-01,118.55184173583984,119.0199966430664,128.47999572753906,117.9000015258789,127.20999908447266,989400
2026-05-04,120.12562561035156,120.5999984741211,121.75,117.45999908447266,118.68000030517578,739600
2026-05-05,121.55000305175781,122.02999877929688,123.70999908447266,120.81999969482422,120.9000015258789,628600
2026-05-06,122.62999725341797,122.62999725341797,126.38999938964844,121.66999816894531,123.18000030517578,917000
2026-05-07,125.11000061035156,125.11000061035156,126.47000122070312,122.56999969482422,122.94000244140625,749700
2026-05-08,120.98999786376953,120.98999786376953,125.86000061035156,120.38999938964844,125.2300033569336,794900
2026-05-11,119.95999908447266,119.95999908447266,121.22000122070312,119.44000244140625,121.22000122070312,706100
2026-05-12,118.05000305175781,118.05000305175781,120.86000061035156,117.13999938964844,120.44999694824219,696600
2026-05-13,117.87999725341797,117.87999725341797,118.75,116.43000030517578,118.0,679500
2026-05-14,117.98999786376953,117.98999786376953,120.16000366210938,117.04000091552734,118.7300033569336,531000
2026-05-15,114.66999816894531,114.66999816894531,117.91999816894531,114.47000122070312,117.91000366210938,447000
2026-05-18,115.80999755859375,115.80999755859375,117.31999969482422,115.16999816894531,115.5999984741211,433100
2026-05-19,113.61000061035156,113.61000061035156,116.04000091552734,112.44999694824219,115.88999938964844,575800
2026-05-20,115.26000213623047,115.26000213623047,115.44999694824219,111.55000305175781,114.06999969482422,562600
2026-05-21,115.51000213623047,115.51000213623047,116.5,112.7699966430664,116.5,345600
2026-05-22,116.2300033569336,116.2300033569336,116.80000305175781,114.70999908447266,115.80000305175781,405800
2026-05-26,116.37999725341797,116.37999725341797,116.97000122070312,115.37000274658203,116.19999694824219,344500
2026-05-27,115.30000305175781,115.30000305175781,118.11000061035156,114.7300033569336,116.94000244140625,464000
2026-05-28,115.98999786376953,115.98999786376953,116.33999633789062,113.3499984741211,114.80999755859375,510100
2026-05-29,115.8499984741211,115.8499984741211,117.26000213623047,113.75,115.05999755859375,559600
2026-06-01,112.37999725341797,112.37999725341797,115.12999725341797,112.02999877929688,114.69000244140625,706800
2026-06-02,112.18000030517578,112.18000030517578,113.05000305175781,111.23999786376953,111.94999694824219,452400
2026-06-03,112.52999877929688,112.52999877929688,114.0199966430664,111.69000244140625,111.69000244140625,372600
2026-06-04,112.55000305175781,112.55000305175781,115.76000213623047,111.54000091552734,114.94999694824219,337600
2026-06-05,113.36000061035156,113.36000061035156,114.58999633789062,111.9800033569336,113.08999633789062,466300
2026-06-08,111.94000244140625,111.94000244140625,112.63999938964844,110.94999694824219,112.26000213623047,422200
2026-06-09,115.9000015258789,115.9000015258789,116.1500015258789,112.66999816894531,113.27999877929688,444400
2026-06-10,114.66999816894531,114.66999816894531,116.55000305175781,113.37000274658203,116.1500015258789,496800
2026-06-11,116.58000183105469,116.58000183105469,117.01000213623047,114.26000213623047,115.11000061035156,395200
2026-06-12,117.72000122070312,117.72000122070312,118.47000122070312,116.37999725341797,117.9000015258789,342600
2026-06-15,118.08000183105469,118.08000183105469,120.73999786376953,117.55999755859375,118.69999694824219,576100
2026-06-16,120.6500015258789,120.6500015258789,121.05000305175781,113.7699966430664,118.5,474700
2026-06-17,119.98999786376953,119.98999786376953,122.3499984741211,119.45999908447266,121.62000274658203,680500
2026-06-18,120.31999969482422,120.31999969482422,122.55000305175781,119.11000061035156,120.45999908447266,750600
2026-06-22,120.0,120.0,121.01000213623047,118.87999725341797,119.55999755859375,468400
2026-06-23,120.61000061035156,120.61000061035156,122.58000183105469,119.08000183105469,120.36000061035156,514100
2026-06-24,124.27999877929688,124.27999877929688,125.05000305175781,121.7699966430664,121.9800033569336,404900
2026-06-25,126.43000030517578,126.43000030517578,128.13999938964844,124.9000015258789,125.7300033569336,363500
2026-06-26,125.9800033569336,125.9800033569336,127.12000274658203,124.76000213623047,125.94000244140625,727400
2026-06-29,125.29000091552734,125.29000091552734,126.05000305175781,123.91999816894531,125.61000061035156,446600
2026-06-30,125.19999694824219,125.19999694824219,126.30999755859375,123.94000244140625,124.5999984741211,329300
2026-07-01,125.25,125.25,126.83999633789062,124.0999984741211,125.12000274658203,405600
2026-07-02,126.9800033569336,126.9800033569336,128.22999572753906,125.41000366210938,126.2699966430664,468400
2026-07-06,126.01000213623047,126.01000213623047,127.05000305175781,124.18000030517578,126.43000030517578,431400
2026-07-07,127.69000244140625,127.69000244140625,128.72000122070312,126.16000366210938,126.62999725341797,392700
2026-07-08,124.20999908447266,124.20999908447266,126.70999908447266,123.04000091552734,126.44999694824219,537700
2026-07-09,124.44999694824219,124.44999694824219,125.4800033569336,123.77999877929688,124.45999908447266,302100
2026-07-10,125.52999877929688,125.52999877929688,126.9800033569336,124.37000274658203,125.0,385200
2026-07-13,124.88999938964844,124.88999938964844,127.16999816894531,124.4000015258789,126.08999633789062,391600
2026-07-14,128.27999877929688,128.27999877929688,129.41000366210938,127.95999908447266,128.4199981689453,739900
2026-07-15,129.11000061035156,129.11000061035156,130.77000427246094,128.4499969482422,129.7100067138672,466800
2026-07-16,134.75,134.75,135.0800018310547,130.02000427246094,130.02000427246094,579300
2026-07-17,132.61000061035156,132.61000061035156,136.64999389648438,130.7100067138672,135.8300018310547,530800
2026-07-20,129.91000366210938,129.91000366210938,132.3800048828125,129.75,132.3800048828125,422900
2026-07-21,128.91000366210938,128.91000366210938,131.05999755859375,127.91999816894531,130.52999877929688,328800
